dafruit INA260 Test
Found INA260 chip
time (ms), rpm, mA, mA max
4022, 0, 2005.00, 2005.00
4024, 0, 4380.00, 4380.00
4046, 0, 4243.75, 4380.00
4048, 14, 4112.50, 4380.00,
4078, 1900, 3882.50, 4380.00,
4099, 3032, 3751.25, 4380.00,
4115, 3773, 3346.25, 4380.00,
4128, 4363, 3430.00, 4380.00,
4141, 4878, 3383.75, 4380.00,
4152, 5322, 3251.25, 4380.00,
4163, 5714, 3197.50, 4380.00,
4174, 6090, 3050.00, 4380.00,
4185, 6432, 3158.75, 4380.00,
4196, 6741, 2938.75, 4380.00,
4207, 7299, 2866.25, 4380.00,
4218, 7587, 2762.50, 4380.00,
4229, 7841, 2816.25, 4380.00,
4240, 8278, 2632.50, 4380.00,
4251, 8517, 2686.25, 4380.00,
4262, 8912, 2673.75, 4380.00,
4273, 9299, 2613.75, 4380.00,
4284, 9652, 2467.50, 4380.00,
4295, 9823, 2456.25, 4380.00,
4306, 10148, 2378.75, 4380.00,
4317, 10460, 2347.50, 4380.00,
4328, 10744, 2300.00, 4380.00,
4339, 11013, 2251.25, 4380.00,
4350, 11286, 2163.75, 4380.00,
4361, 11574, 2180.00, 4380.00,
4372, 11867, 2076.25, 4380.00,
4383, 12145, 2103.75, 4380.00,
4395, 12325, 2020.00, 4380.00,
4406, 12636, 2026.25, 4380.00,
4417, 12831, 2022.50, 4380.00,
4428, 12964, 1893.75, 4380.00,
4439, 13286, 1926.25, 4380.00,
4450, 13452, 1805.00, 4380.00,
4461, 13736, 1807.50, 4380.00,
4472, 13850, 1780.00, 4380.00,
4483, 14137, 1770.00, 4380.00,
4494, 14354, 1753.75, 4380.00,
4505, 14423, 1710.00, 4380.00,
4516, 14691, 1573.75, 4380.00,
4527, 14807, 1680.00, 4380.00,
4538, 15000, 1615.00, 4380.00,
4549, 15136, 1628.75, 4380.00,
4560, 15384, 1617.50, 4380.00,
4571, 15511, 1590.00, 4380.00,
4582, 15690, 1381.25, 4380.00,
4593, 15806, 1453.75, 4380.00,
4604, 16008, 1530.00, 4380.00,
4615, 16077, 1492.50, 4380.00,
4626, 16268, 1481.25, 4380.00,
4637, 16322, 1495.00, 4380.00,
4648, 16611, 1402.50, 4380.00,
4659, 16685, 1438.75, 4380.00,
4670, 16797, 1385.00, 4380.00,
4681, 16930, 1355.00, 4380.00,
4692, 17045, 1320.00, 4380.00,
4703, 17162, 1370.00, 4380.00,
4714, 17301, 1328.75, 4380.00,
4725, 17381, 1341.25, 4380.00,
4736, 17543, 1272.50, 4380.00,
4747, 17647, 1215.00, 4380.00,
4758, 17688, 1230.00, 4380.00,
4769, 17835, 1266.25, 4380.00,
4780, 17964, 1272.50, 4380.00,
4791, 18050, 1183.75, 4380.00,
4802, 18050, 1156.25, 4380.00,
4813, 18203, 1206.25, 4380.00,
4824, 18315, 1183.75, 4380.00,
4835, 18404, 1207.50, 4380.00,
4846, 18495, 1207.50, 4380.00,
4857, 18541, 1155.00, 4380.00,
4868, 18750, 1137.50, 4380.00,
4879, 18820, 1093.75, 4380.00,
4890, 18867, 1135.00, 4380.00,
4901, 18939, 1123.75, 4380.00,
4912, 18963, 1085.00, 4380.00,
4923, 19157, 1113.75, 4380.00,
4934, 19230, 1018.75, 4380.00,
4945, 19354, 1121.25, 4380.00,
4956, 19354, 990.00, 4380.00,
4967, 19556, 1102.50, 4380.00,
4978, 19531, 1063.75, 4380.00,
4989, 19582, 1087.50, 4380.00,
5000, 19736, 1028.75, 4380.00,
5011, 19736, 1007.50, 4380.00,
5022, 19841, 971.25, 4380.00,
5033, 19973, 990.00, 4380.00,
5044, 20000, 1018.75, 4380.00,
5055, 20000, 977.50, 4380.00,
5066, 5713, 915.00, 4380.00,
5078, 20134, 908.75, 4380.00,
5089, 20107, 842.50, 4380.00,
5100, 20215, 932.50, 4380.00,
5111, 20242, 903.75, 4380.00,
5122, 20188, 850.00, 4380.00,
5133, 20242, 800.00, 4380.00,
5144, 20242, 946.25, 4380.00,
5155, 20463, 886.25, 4380.00,
5166, 20435, 911.25, 4380.00,
5177, 20491, 858.75, 4380.00,
5188, 20718, 882.50, 4380.00,
5199, 20491, 845.00, 4380.00,
5210, 20547, 715.00, 4380.00,
5221, 20632, 805.00, 4380.00,
5232, 20604, 801.25, 4380.00,
5243, 20746, 820.00, 4380.00,
5254, 20689, 836.25, 4380.00,
5265, 20746, 775.00, 4380.00,
5276, 20746, 867.50, 4380.00,
5287, 20862, 797.50, 4380.00,
5298, 20862, 781.25, 4380.00,
5309, 20833, 858.75, 4380.00,
5320, 20979, 767.50, 4380.00,
5331, 21008, 816.25, 4380.00,
5343, 21008, 757.50, 4380.00,
5354, 20949, 656.25, 4380.00,
5365, 21008, 735.00, 4380.00,
5376, 21067, 851.25, 4380.00,
5387, 21067, 707.50, 4380.00,
5398, 21126, 817.50, 4380.00,
5409, 21126, 838.75, 4380.00,
5420, 22935, 871.25, 4380.00,
5431, 21216, 751.25, 4380.00,
5443, 21306, 757.50, 4380.00,
5454, 21246, 677.50, 4380.00,
5465, 21126, 706.25, 4380.00,
5476, 21216, 873.75, 4380.00,
5487, 21246, 793.75, 4380.00,
5498, 10583, 726.25, 4380.00,
5509, 21337, 751.25, 4380.00,
5520, 21459, 642.50, 4380.00,
5531, 21520, 768.75, 4380.00,
5542, 21367, 746.25, 4380.00,
5553, 21367, 785.00, 4380.00,
5564, 21367, 592.50, 4380.00,
5575, 21367, 695.00, 4380.00,
5586, 21367, 871.25, 4380.00,
5597, 21520, 706.25, 4380.00,
5608, 21489, 777.50, 4380.00,
5619, 21337, 721.25, 4380.00,
5630, 21306, 753.75, 4380.00,
5641, 21367, 793.75, 4380.00,
5653, 21459, 745.00, 4380.00,
5664, 21428, 807.50, 4380.00,
5675, 21489, 633.75, 4380.00,
5686, 21459, 765.00, 4380.00,
5697, 21520, 675.00, 4380.00,
5708, 21551, 708.75, 4380.00,
5719, 21489, 682.50, 4380.00,
5732, 21428, 691.25, 4380.00,
5743, 21520, 728.75, 4380.00,
5754, 21459, 763.75, 4380.00,
5765, 21459, 747.50, 4380.00,
5776, 21459, 685.00, 4380.00,
5787, 21520, 598.75, 4380.00,
5798, 21337, 671.25, 4380.00,
5809, 21428, 668.75, 4380.00,
5820, 21459, 807.50, 4380.00,
5831, 21551, 750.00, 4380.00,
5842, 21520, 753.75, 4380.00,
5853, 21520, 768.75, 4380.00,
5864, 21428, 533.75, 4380.00,
5875, 21582, 627.50, 4380.00,
5886, 21337, 715.00, 4380.00,
5897, 21520, 751.25, 4380.00,
5908, 21707, 755.00, 4380.00,
5919, 21551, 740.00, 4380.00,
5931, 21582, 745.00, 4380.00,
5942, 21489, 507.50, 4380.00,
5953, 21520, 637.50, 4380.00,
5964, 21520, 651.25, 4380.00,
5975, 21520, 808.75, 4380.00,
5986, 28266, 813.75, 4380.00,
5997, 21582, 681.25, 4380.00,
6008, 21613, 775.00, 4380.00,
6019, 21520, 545.00, 4380.00,
6030, 21520, 655.00, 4380.00,
6041, 21459, 595.00, 4380.00,
6052, 21489, 745.00, 4380.00,
6063, 21520, 735.00, 4380.00,
6074, 21459, 691.25, 4380.00,
6085, 21398, 588.75, 4380.00,
6096, 21459, 656.25, 4380.00,
6107, 21428, 555.00, 4380.00,
6118, 21398, 625.00, 4380.00,
6129, 21489, 636.25, 4380.00,
6140, 21613, 725.00, 4380.00,
6151, 21459, 628.75, 4380.00,
6162, 21459, 713.75, 4380.00,
6173, 21489, 641.25, 4380.00,
6184, 21520, 650.00, 4380.00,
6195, 21489, 585.00, 4380.00,
6206, 21459, 710.00, 4380.00,
6217, 21489, 655.00, 4380.00,
6228, 21459, 745.00, 4380.00,
6239, 21428, 716.25, 4380.00,
6250, 21367, 601.25, 4380.00,
6261, 21306, 540.00, 4380.00,
6272, 21398, 665.00, 4380.00,
6283, 21459, 713.75, 4380.00,
6294, 28266, 720.00, 4380.00,
6305, 21428, 691.25, 4380.00,
6316, 21520, 800.00, 4380.00,
6327, 21520, 691.25, 4380.00,
6338, 21489, 622.50, 4380.00,
6349, 28896, 565.00, 4380.00,
6360, 21489, 838.75, 4380.00,
6371, 21428, 678.75, 4380.00,
6382, 21428, 801.25, 4380.00,
6393, 21428, 748.75, 4380.00,
6404, 21428, 681.25, 4380.00,
6415, 21398, 722.50, 4380.00,
6426, 21520, 741.25, 4380.00,
6437, 21489, 482.50, 4380.00,
6448, 21551, 700.00, 4380.00,
6459, 21551, 577.50, 4380.00,
6470, 21520, 670.00, 4380.00,
6481, 21613, 785.00, 4380.00,
6492, 21459, 700.00, 4380.00,
6503, 21428, 670.00, 4380.00,
6514, 21520, 780.00, 4380.00,
6525, 21489, 667.50, 4380.00,
6536, 21551, 643.75, 4380.00,
6547, 21489, 688.75, 4380.00,
6558, 21367, 660.00, 4380.00,
6569, 21551, 725.00, 4380.00,
6580, 21459, 696.25, 4380.00,
6591, 21428, 742.50, 4380.00,
6602, 21489, 635.00, 4380.00,
6614, 21489, 732.50, 4380.00,
6625, 21551, 753.75, 4380.00,
6636, 21489, 745.00, 4380.00,
6647, 21459, 623.75, 4380.00,
6658, 21520, 685.00, 4380.00,
6669, 21520, 705.00, 4380.00,
6680, 21551, 722.50, 4380.00,
6691, 21459, 763.75, 4380.00,
6702, 21520, 551.25, 4380.00,
6713, 21489, 741.25, 4380.00,
6724, 21489, 688.75, 4380.00,
6735, 21337, 658.75, 4380.00,
6746, 21459, 655.00, 4380.00,
6757, 21551, 673.75, 4380.00,
6768, 21459, 476.25, 4380.00,
6779, 21582, 603.75, 4380.00,
6790, 21459, 706.25, 4380.00,
6801, 1013, 702.50, 4380.00,
6812, 21428, 697.50, 4380.00,
6823, 21551, 656.25, 4380.00,
6835, 21676, 718.75, 4380.00,
6846, 21613, 683.75, 4380.00,
6857, 21582, 693.75, 4380.00,
6868, 21551, 648.75, 4380.00,
6879, 21582, 640.00, 4380.00,
6890, 21551, 662.50, 4380.00,
6901, 21520, 673.75, 4380.00,
6912, 21645, 740.00, 4380.00,
6923, 21520, 755.00, 4380.00,
6934, 21428, 733.75, 4380.00,
6945, 21520, 643.75, 4380.00,
6956, 21551, 483.75, 4380.00,
6968, 21645, 690.00, 4380.00,
6979, 21645, 556.25, 4380.00,
6990, 21645, 708.75, 4380.00,
7001, 21520, 735.00, 4380.00,
7012, 21613, 640.00, 4380.00,
7023, 21613, 737.50, 4380.00,
7034, 21428, 592.50, 4380.00,
7045, 21520, 583.75, 4380.00,
7056, 21428, 713.75, 4380.00,
7067, 28266, 711.25, 4380.00,
7078, 21551, 675.00, 4380.00,
7089, 21613, 721.25, 4380.00,
7100, 21551, 683.75, 4380.00,
7111, 21613, 695.00, 4380.00,
7122, 21613, 578.75, 4380.00,
7133, 21582, 545.00, 4380.00,
7144, 21489, 718.75, 4380.00,
7155, 28266, 756.25, 4380.00,
7166, 21582, 723.75, 4380.00,
7177, 21582, 793.75, 4380.00,
7188, 21613, 787.50, 4380.00,
7199, 21645, 415.00, 4380.00,
7211, 21582, 646.25, 4380.00,
7222, 21645, 617.50, 4380.00,
7233, 21739, 745.00, 4380.00,
7244, 21645, 621.25, 4380.00,
7255, 21707, 788.75, 4380.00,
7266, 21676, 733.75, 4380.00,
7277, 21582, 718.75, 4380.00,
7288, 21520, 712.50, 4380.00,
7299, 21645, 822.50, 4380.00,
7310, 21645, 690.00, 4380.00,
7321, 21613, 677.50, 4380.00,
7332, 21645, 682.50, 4380.00,
7343, 21613, 795.00, 4380.00,
7354, 21613, 722.50, 4380.00,
7365, 21645, 698.75, 4380.00,
7376, 21645, 675.00, 4380.00,
7388, 21613, 677.50, 4380.00,
7399, 21645, 600.00, 4380.00,
7410, 21613, 728.75, 4380.00,
7421, 21613, 625.00, 4380.00,
7432, 21613, 670.00, 4380.00,
7443, 1013, 751.25, 4380.00,
7454, 21613, 648.75, 4380.00,
7465, 21707, 676.25, 4380.00,
7476, 21582, 753.75, 4380.00,
7487, 21707, 702.50, 4380.00,
7498, 21613, 572.50, 4380.00,
7510, 21707, 631.25, 4380.00,
7521, 21551, 497.50, 4380.00,
7532, 21613, 621.25, 4380.00,
7543, 21739, 717.50, 4380.00,
7554, 21613, 653.75, 4380.00,
7565, 21645, 683.75, 4380.00,
7576, 21707, 790.00, 4380.00,
7587, 21613, 590.00, 4380.00,
7598, 28896, 675.00, 4380.00,
7609, 21739, 692.50, 4380.00,
7620, 21613, 607.50, 4380.00,
7631, 21582, 703.75, 4380.00,
7642, 21676, 753.75, 4380.00,
7653, 21520, 791.25, 4380.00,
7664, 21551, 712.50, 4380.00,
7675, 21645, 612.50, 4380.00,
7686, 21676, 522.50, 4380.00,
7697, 21613, 668.75, 4380.00,
7708, 21802, 641.25, 4380.00,
7719, 21707, 662.50, 4380.00,
7730, 21707, 693.75, 4380.00,
7741, 21739, 866.25, 4380.00,
7752, 21897, 641.25, 4380.00,
7763, 21707, 727.50, 4380.00,
7774, 21676, 732.50, 4380.00,
7785, 21645, 713.75, 4380.00,
7796, 21676, 743.75, 4380.00,
7808, 21707, 533.75, 4380.00,
7819, 21739, 591.25, 4380.00,
7830, 21770, 705.00, 4380.00,
7841, 21645, 733.75, 4380.00,
7852, 21739, 708.75, 4380.00,
7863, 21707, 703.75, 4380.00,
7874, 21707, 710.00, 4380.00,
7885, 21676, 733.75, 4380.00,
7896, 21707, 605.00, 4380.00,
7907, 21676, 631.25, 4380.00,
7918, 21676, 685.00, 4380.00,
7929, 21770, 740.00, 4380.00,
7940, 21645, 718.75, 4380.00,
7951, 21707, 707.50, 4380.00,
7962, 21676, 785.00, 4380.00,
7973, 21613, 778.75, 4380.00,
7984, 21739, 720.00, 4380.00,
7995, 21613, 641.25, 4380.00,
8006, 21645, 581.25, 4380.00,
8017, 21676, 711.25, 4380.00,
8028, 21707, 705.00, 4380.00,
8039, 21707, 587.50, 4380.00,
8050, 21551, 633.75, 4380.00,
8061, 21834, 613.75, 4380.00,
8072, 21770, 682.50, 4380.00,
8083, 21739, 707.50, 4380.00,
8094, 21707, 611.25, 4380.00,
8105, 21613, 731.25, 4380.00,
8116, 21645, 618.75, 4380.00,
8127, 21676, 643.75, 4380.00,
8138, 21551, 597.50, 4380.00,
8150, 21582, 616.25, 4380.00,
8161, 21582, 667.50, 4380.00,
8172, 21676, 630.00, 4380.00,
8183, 21645, 670.00, 4380.00,
8194, 21645, 657.50, 4380.00,
8205, 21645, 791.25, 4380.00,
8216, 21582, 696.25, 4380.00,
8227, 21707, 678.75, 4380.00,
8238, 21676, 623.75, 4380.00,
8249, 21582, 622.50, 4380.00,
8260, 21645, 630.00, 4380.00,
8271, 21676, 643.75, 4380.00,
8282, 21676, 696.25, 4380.00,
8293, 21770, 657.50, 4380.00,
8304, 21676, 712.50, 4380.00,
8315, 21707, 576.25, 4380.00,
8326, 21645, 713.75, 4380.00,
8337, 21707, 716.25, 4380.00,
8348, 21739, 658.75, 4380.00,
8359, 21707, 616.25, 4380.00,
8370, 21897, 516.25, 4380.00,
8381, 21707, 657.50, 4380.00,
8392, 21645, 680.00, 4380.00,
8403, 21739, 685.00, 4380.00,
8414, 21676, 748.75, 4380.00,
8425, 21739, 737.50, 4380.00,
8436, 21739, 741.25, 4380.00,
8448, 21739, 737.50, 4380.00,
8459, 21676, 692.50, 4380.00,
8470, 21613, 488.75, 4380.00,
8481, 21582, 666.25, 4380.00,
8492, 21739, 577.50, 4380.00,
8503, 21834, 602.50, 4380.00,
8514, 21613, 685.00, 4380.00,
8525, 21645, 683.75, 4380.00,
8536, 21645, 557.50, 4380.00,
8547, 21739, 667.50, 4380.00,
8558, 21707, 755.00, 4380.00,
8569, 21613, 767.50, 4380.00,
8580, 21802, 667.50, 4380.00,
8591, 21802, 703.75, 4380.00,
8602, 21802, 627.50, 4380.00,
8613, 21802, 640.00, 4380.00,
8624, 21739, 668.75, 4380.00,
8635, 21707, 598.75, 4380.00,
8646, 21739, 712.50, 4380.00,
8657, 21676, 793.75, 4380.00,
8668, 21739, 731.25, 4380.00,
8679, 21707, 710.00, 4380.00,
8690, 21802, 742.50, 4380.00,
8701, 21676, 698.75, 4380.00,
8712, 21739, 660.00, 4380.00,
8723, 21739, 661.25, 4380.00,
8734, 21770, 626.25, 4380.00,
8745, 21676, 665.00, 4380.00,
8756, 21770, 560.00, 4380.00,
8767, 21802, 468.75, 4380.00,
8778, 21802, 623.75, 4380.00,
8790, 21707, 690.00, 4380.00,
8801, 21865, 738.75, 4380.00,
8812, 21834, 680.00, 4380.00,
8823, 21707, 700.00, 4380.00,
8834, 21897, 768.75, 4380.00,
8845, 21739, 626.25, 4380.00,
8856, 21739, 687.50, 4380.00,
8867, 21645, 647.50, 4380.00,
8878, 21865, 813.75, 4380.00,
8889, 21707, 827.50, 4380.00,
8900, 21770, 625.00, 4380.00,
8911, 21739, 730.00, 4380.00,
8922, 21834, 657.50, 4380.00,
8933, 21707, 687.50, 4380.00,
8944, 21834, 663.75, 4380.00,
8955, 21739, 631.25, 4380.00,
8966, 21676, 601.25, 4380.00,
8977, 21707, 586.25, 4380.00,
8988, 21489, 753.75, 4380.00,
8999, 19264, 713.75, 4380.00,
9010, 21707, 735.00, 4380.00,
9021, 21707, 738.75, 4380.00,
9032, 21834, 772.50, 4380.00,
9043, 21707, 728.75, 4380.00,
9054, 21770, 660.00, 4380.00,
9065, 21676, 746.25, 4380.00,
9076, 21707, 628.75, 4380.00,
9088, 21707, 648.75, 4380.00,
9099, 21676, 636.25, 4380.00,
9110, 21582, 690.00, 4380.00,
9121, 21739, 812.50, 4380.00,
9132, 21739, 496.25, 4380.00,
9143, 21739, 752.50, 4380.00,
9154, 21770, 692.50, 4380.00,
9165, 21739, 666.25, 4380.00,
9176, 21739, 633.75, 4380.00,
9187, 21770, 511.25, 4380.00,
9198, 21645, 628.75, 4380.00,
9209, 21676, 693.75, 4380.00,
9220, 21707, 635.00, 4380.00,
9231, 21770, 811.25, 4380.00,
9242, 21707, 703.75, 4380.00,
9253, 21613, 657.50, 4380.00,
9264, 21770, 723.75, 4380.00,
9275, 21707, 752.50, 4380.00,
9286, 21676, 673.75, 4380.00,
9297, 21802, 618.75, 4380.00,
9308, 21707, 562.50, 4380.00,
9319, 21613, 606.25, 4380.00,
9330, 21676, 752.50, 4380.00,
9341, 21834, 647.50, 4380.00,
9352, 21707, 583.75, 4380.00,
9363, 21770, 761.25, 4380.00,
9374, 21739, 631.25, 4380.00,
9385, 5713, 730.00, 4380.00,
9396, 21613, 733.75, 4380.00,
9407, 21865, 691.25, 4380.00,
9418, 21739, 638.75, 4380.00,
9430, 21739, 583.75, 4380.00,
9441, 21707, 662.50, 4380.00,
9452, 21739, 785.00, 4380.00,
9463, 21645, 702.50, 4380.00,
9474, 21645, 710.00, 4380.00,
9485, 21676, 686.25, 4380.00,
9496, 21707, 716.25, 4380.00,
9507, 21645, 698.75, 4380.00,
9518, 21707, 686.25, 4380.00,
9529, 21770, 623.75, 4380.00,
9540, 21739, 597.50, 4380.00,
9551, 21770, 603.75, 4380.00,
9562, 21707, 552.50, 4380.00,
9573, 21676, 648.75, 4380.00,
9584, 21739, 660.00, 4380.00,
9597, 21865, 688.75, 4380.00,
9608, 21707, 758.75, 4380.00,
9619, 21802, 713.75, 4380.00,
9630, 21707, 577.50, 4380.00,
9641, 21613, 566.25, 4380.00,
9652, 21834, 567.50, 4380.00,
9663, 19264, 651.25, 4380.00,
9674, 21707, 597.50, 4380.00,
9686, 21676, 681.25, 4380.00,
9697, 21676, 705.00, 4380.00,
9708, 21676, 660.00, 4380.00,
9719, 21739, 720.00, 4380.00,
9730, 21834, 720.00, 4380.00,
9741, 21582, 701.25, 4380.00,
9752, 21865, 643.75, 4380.00,
9763, 21770, 657.50, 4380.00,
9774, 21613, 646.25, 4380.00,
9785, 21676, 766.25, 4380.00,
9796, 21834, 735.00, 4380.00,
9807, 21865, 766.25, 4380.00,
9818, 21802, 648.75, 4380.00,
9829, 21707, 563.75, 4380.00,
9840, 21770, 702.50, 4380.00,
9851, 21802, 668.75, 4380.00,
9862, 21865, 360.00, 4380.00,
9873, 21676, 0.00, 4380.00,
9884, 21582, 0.00, 4380.00,
9895, 21459, 0.00, 4380.00,
9906, 21489, 0.00, 4380.00,
9917, 21216, 0.00, 4380.00,
9928, 21156, 0.00, 4380.00,
9939, 21037, 0.00, 4380.00,
9950, 20979, 0.00, 4380.00,
9961, 20862, 0.00, 4380.00,
9972, 20862, 0.00, 4380.00,
9984, 20689, 0.00, 4380.00,
9995, 20632, 0.00, 4380.00,
10006, 20435, 0.00, 4380.00,
10017, 20380, 0.00, 4380.00,
10028, 20380, 0.00, 4380.00,
10039, 20242, 0.00, 4380.00,
10050, 20188, 0.00, 4380.00,
10061, 20053, 0.00, 4380.00,
10072, 19973, 0.00, 4380.00,
10083, 19867, 0.00, 4380.00,
10094, 19841, 0.00, 4380.00,
10105, 19736, 0.00, 4380.00,
10116, 19582, 0.00, 4380.00,
10127, 19582, 0.00, 4380.00,
10138, 19505, 0.00, 4380.00,
10149, 19430, 0.00, 4380.00,
10160, 19305, 0.00, 4380.00,
10171, 19255, 0.00, 4380.00,
10182, 19108, 0.00, 4380.00,
10193, 19035, 0.00, 4380.00,
10204, 19011, 0.00, 4380.00,
10215, 18891, 0.00, 4380.00,
10226, 18844, 0.00, 4380.00,
10237, 18726, 0.00, 4380.00,
10248, 18610, 0.00, 4380.00,
10259, 18587, 0.00, 4380.00,
10270, 18518, 0.00, 4380.00,
10281, 18404, 1.25, 4380.00,
10292, 18337, 0.00, 4380.00,
10303, 18292, 0.00, 4380.00,
10314, 18226, 0.00, 4380.00,
10326, 18094, 0.00, 4380.00,
10337, 18028, 0.00, 4380.00,
10348, 17857, 0.00, 4380.00,
10359, 17899, 0.00, 4380.00,
10370, 17814, 0.00, 4380.00,
10381, 17751, 0.00, 4380.00,
10392, 17647, 0.00, 4380.00,
10403, 17647, 0.00, 4380.00,
10414, 17584, 0.00, 4380.00,
10425, 17441, 0.00, 4380.00,
10436, 17401, 0.00, 4380.00,
10447, 17341, 0.00, 4380.00,
10458, 17261, 0.00, 4380.00,
10469, 17201, 0.00, 4380.00,
10480, 17123, 0.00, 4380.00,
10491, 17084, 0.00, 4380.00,
10502, 17006, 0.00, 4380.00,
10513, 16949, 0.00, 4380.00,
10524, 16891, 0.00, 4380.00,
10535, 16778, 0.00, 4380.00,
10546, 16648, 0.00, 4380.00,
10557, 16666, 0.00, 4380.00,
10568, 16592, 0.00, 4380.00,
10579, 16538, 0.00, 4380.00,
10590, 16483, 0.00, 4380.00,
10601, 16393, 0.00, 4380.00,
10612, 16339, 0.00, 4380.00,
10624, 16268, 0.00, 4380.00,
10635, 16216, 0.00, 4380.00,
10646, 16163, 0.00, 4380.00,
10657, 16042, 0.00, 4380.00,
10668, 16025, 0.00, 4380.00,
10679, 15957, 0.00, 4380.00,
10690, 15906, 0.00, 4380.00,
10701, 15839, 0.00, 4380.00,
10712, 15723, 0.00, 4380.00,
10723, 15789, 0.00, 4380.00,
10734, 15673, 0.00, 4380.00,
10745, 15625, 0.00, 4380.00,
10756, 15560, 0.00, 4380.00,
10767, 15479, 0.00, 4380.00,
10778, 15432, 0.00, 4380.00,
10789, 15337, 0.00, 4380.00,
10800, 15306, 0.00, 4380.00,
10811, 15259, 0.00, 4380.00,
10822, 15182, 0.00, 4380.00,
10833, 15120, 0.00, 4380.00,
10844, 15015, 0.00, 4380.00,
10855, 15000, 0.00, 4380.00,
10866, 15015, 0.00, 4380.00,
10877, 14895, 0.00, 4380.00,
10888, 14866, 0.00, 4380.00,
10899, 14778, 0.00, 4380.00,
10910, 14734, 0.00, 4380.00,
10921, 14691, 0.00, 4380.00,
10932, 14634, 0.00, 4380.00,
10943, 14563, 0.00, 4380.00,
10954, 14506, 0.00, 4380.00,
10966, 14409, 0.00, 4380.00,
10977, 14367, 0.00, 4380.00,
10988, 14312, 0.00, 4380.00,
10999, 14245, 0.00, 4380.00,
11010, 14258, 0.00, 4380.00,
11021, 14150, 0.00, 4380.00,
11032, 14164, 0.00, 4380.00,
11043, 14071, 0.00, 4380.00,
11054, 14005, 0.00, 4380.00,
11065, 13940, 0.00, 4380.00,
11076, 13914, 0.00, 4380.00,
11087, 13824, 0.00, 4380.00,
11098, 13786, 0.00, 4380.00,
11109, 13736, 0.00, 4380.00,
11120, 13711, 0.00, 4380.00,
11131, 13574, 0.00, 4380.00,
11142, 13586, 0.00, 4380.00,
11153, 13489, 0.00, 4380.00,
11164, 13477, 0.00, 4380.00,
11175, 13380, 0.00, 4380.00,
11186, 13380, 0.00, 4380.00,
11197, 13321, 0.00, 4380.00,
11208, 13274, 0.00, 4380.00,
11219, 13215, 0.00, 4380.00,
11230, 13146, 0.00, 4380.00,
11241, 13111, 0.00, 4380.00,
11252, 13066, 0.00, 4380.00,
11264, 12964, 0.00, 4380.00,
11275, 12975, 0.00, 4380.00,
11286, 12897, 0.00, 4380.00,
11297, 12842, 0.00, 4380.00,
11308, 12820, 0.00, 4380.00,
11319, 12765, 0.00, 4380.00,
11330, 12733, 0.00, 4380.00,
11341, 12658, 0.00, 4380.00,
11352, 12605, 0.00, 4380.00,
11363, 12552, 0.00, 4380.00,
11374, 12500, 0.00, 4380.00,
11385, 12417, 0.00, 4380.00,
11396, 12427, 0.00, 4380.00,
11407, 12366, 0.00, 4380.00,
11418, 12305, 0.00, 4380.00,
